Id,X_Disp,Y_Disp
1,0.0,0.0
2,-0.48179692,-0.46441174
3,-0.72929823,-0.78544307
4,-0.7088514,-1.2364321
5,-0.65005654,-1.6678503
6,-0.5986601,-2.0663664
7,-0.54951954,-2.436799
8,-0.5048126,-2.7805727
9,-0.4625976,-3.099559
10,-0.42387775,-3.395739
11,-0.38751566,-3.670353
12,-0.35411915,-3.925394
13,-0.3227583,-4.1618037
14,-0.29401177,-4.3813753
15,-0.26694837,-4.5848894
16,-0.2422239,-4.7738676
17,-0.21884345,-4.9490447
18,-0.19750482,-5.1115775
19,-0.17728053,-5.262281
20,-0.15897396,-5.4021163
21,-0.14128105,-5.5315633
22,-0.1256908,-5.651817
23,-0.110124715,-5.7632766
24,-0.096036874,-5.8657265
25,-0.094958246,-5.976728
26,-0.11457438,-6.107932
27,-0.13238324,-6.323125
28,-0.121184975,-6.4848585
29,-0.06331802,-6.525378
30,-0.011312376,-6.56329
31,-0.0019156279,-6.6061645
32,-0.00051913224,-6.6473837
33,-0.0006647125,-6.6474
34,0.000451311,-6.605994
35,0.010140042,-6.563041
36,0.06189918,-6.52496
37,0.1197378,-6.4843054
38,0.13335826,-6.3239694
39,0.111658014,-6.1058917
40,0.09585359,-5.978939
41,0.09545622,-5.866267
42,0.10953799,-5.763745
43,0.1250897,-5.652367
44,0.14073347,-5.5321074
45,0.15845244,-5.402763
46,0.17676683,-5.2629075
47,0.197003,-5.1122484
48,0.2183571,-4.949717
49,0.24175823,-4.774566
50,0.26651242,-4.585596
51,0.29359066,-4.3820896
52,0.3223657,-4.1625185
53,0.35375714,-3.926103
54,0.38719064,-3.671038
55,0.4236005,-3.3963978
56,0.4623635,-3.1001682
57,0.50462997,-2.7811093
58,0.54938614,-2.4372926
59,0.59857976,-2.0667276
60,0.6500103,-1.6680937
61,0.7088322,-1.2366359
62,0.7293912,-0.7855003
63,0.4817899,-0.4646001
64,0.0,0.0
65,0.0,0.0
66,-0.45093113,-0.43373728
67,-0.68485445,-0.777622
68,-0.6536204,-1.2284064
69,-0.5970432,-1.6607637
70,-0.5443153,-2.0585833
71,-0.4960191,-2.429573
72,-0.4506157,-2.7728467
73,-0.40888143,-3.0922356
74,-0.36969256,-3.388043
75,-0.33372223,-3.6629622
76,-0.2998792,-3.917739
77,-0.26893958,-4.1543627
78,-0.23970146,-4.373749
79,-0.21312323,-4.5773973
80,-0.18784468,-4.7662826
81,-0.16499597,-4.9415064
82,-0.14312191,-5.104061
83,-0.12345236,-5.2547183
84,-0.10451748,-5.394619
85,-0.087633625,-5.524081
86,-0.071063675,-5.6442904
87,-0.05648077,-5.7558403
88,-0.041989572,-5.858668
89,-0.034215845,-5.960171
90,-0.039324734,-6.0811176
91,-0.05580774,-6.261776
92,-0.062851876,-6.437272
93,-0.044739783,-6.5377784
94,-0.011139333,-6.5674434
95,-0.00022089573,-6.582553
96,-0.00051258213,-6.6076727
97,-0.00087212276,-6.6074934
98,-0.0010901573,-6.582393
99,0.00957587,-6.567185
100,0.043539863,-6.537223
101,0.0615254,-6.4375453
102,0.053930234,-6.2607307
103,0.039273795,-6.0816193
104,0.034371328,-5.9615264
105,0.041444913,-5.859123
106,0.055885937,-5.7563925
107,0.070488885,-5.6447783
108,0.08709268,-5.524696
109,0.10401124,-5.395231
110,0.12292967,-5.2553663
111,0.14263813,-5.1047215
112,0.16450262,-4.942193
113,0.18739057,-4.7669797
114,0.21267413,-4.5781083
115,0.23928115,-4.3744607
116,0.2685416,-4.1550827
117,0.29951286,-3.9184444
118,0.33339238,-3.6636524
119,0.36940497,-3.3886952
120,0.40863854,-3.0928466
121,0.45041874,-2.7734165
122,0.49587324,-2.4300387
123,0.5442069,-2.0589724
124,0.5969811,-1.6610785
125,0.65358776,-1.228576
126,0.6849033,-0.77782655
127,0.45094582,-0.43347692
128,0.0,0.0
129,0.0,0.0
130,-0.412009,-0.39616108
131,-0.62068814,-0.7661977
132,-0.5810855,-1.2185874
133,-0.52466327,-1.6503794
134,-0.47229007,-2.0488803
135,-0.42348525,-2.4192054
136,-0.37850815,-2.7630372
137,-0.33622536,-3.0819592
138,-0.2975398,-3.3781092
139,-0.26094007,-3.652765
140,-0.22771394,-3.9076843
141,-0.19605055,-4.1442394
142,-0.16750742,-4.3636036
143,-0.14015806,-4.567316
144,-0.11560084,-4.756077
145,-0.091988094,-4.9314513
146,-0.07084943,-5.0938354
147,-0.05043183,-5.244725
148,-0.032268815,-5.3843694
149,-0.014680929,-5.514153
150,0.0012357289,-5.634179
151,0.016489035,-5.7457237
152,0.029970387,-5.8490105
153,0.04322543,-5.9459987
154,0.047793873,-6.0507717
155,0.031999186,-6.2004232
156,0.012799071,-6.368968
157,-0.002339761,-6.5012074
158,-0.009833549,-6.5673347
159,-0.0052152816,-6.571946
160,-0.00064250175,-6.5739665
161,-0.00089015224,-6.5739894
162,0.003644001,-6.571673
163,0.008383494,-6.5669494
164,0.000701458,-6.501546
165,-0.011927374,-6.369335
166,-0.03395689,-6.1995373
167,-0.04802852,-6.0522904
168,-0.043512065,-5.946629
169,-0.03053801,-5.849516
170,-0.0170385,-5.7462034
171,-0.0018099719,-5.63476
172,0.014186439,-5.5147557
173,0.031727027,-5.384997
174,0.049951665,-5.2453723
175,0.0703434,-5.0945034
176,0.091519035,-4.9321365
177,0.1151293,-4.7567806
178,0.13971817,-4.568024
179,0.1670793,-4.364324
180,0.19565307,-4.144949
181,0.22733921,-3.908391
182,0.26059914,-3.6534548
183,0.297238,-3.378766
184,0.33596304,-3.0825424
185,0.37829566,-2.7635918
186,0.4233142,-2.4196897
187,0.4721723,-2.0493026
188,0.52457863,-1.6506059
189,0.581038,-1.2187622
190,0.62070775,-0.7661872
191,0.4120428,-0.39618015
192,0.0,0.0
193,0.0,0.0
194,-0.36046982,-0.35228682
195,-0.5310689,-0.7505543
196,-0.48418212,-1.2056825
197,-0.4275187,-1.6364586
198,-0.37531677,-2.0356596
199,-0.3266214,-2.40553
200,-0.28111675,-2.749651
201,-0.23945886,-3.068315
202,-0.19985814,-3.36471
203,-0.1641883,-3.6390665
204,-0.12988146,-3.8942964
205,-0.099231385,-4.1304727
206,-0.069617815,-4.3502254
207,-0.043220535,-4.553518
208,-0.017701963,-4.742685
209,0.00506811,-4.9176536
210,0.027064728,-5.080415
211,0.046691205,-5.23095
212,0.065602034,-5.37092
213,0.08257712,-5.5004377
214,0.098927885,-5.620881
215,0.113611385,-5.732068
216,0.12783575,-5.8356786
217,0.14068715,-5.9318027
218,0.15057935,-6.024375
219,0.14957792,-6.1354876
220,0.12362345,-6.2797246
221,0.08977918,-6.4182453
222,0.033693373,-6.520106
223,0.00016884191,-6.566628
224,-0.0031382125,-6.570321
225,0.0014241552,-6.5701895
226,-0.001880789,-6.5664682
227,-0.035596035,-6.5200844
228,-0.090412684,-6.4182034
229,-0.12662867,-6.278917
230,-0.1487167,-6.137212
231,-0.15089814,-6.0253415
232,-0.14122462,-5.9323115
233,-0.12832321,-5.8361197
234,-0.1141663,-5.732624
235,-0.099405,-5.621444
236,-0.08312604,-5.5010576
237,-0.066079475,-5.371544
238,-0.047207396,-5.2316093
239,-0.02753305,-5.081083
240,-0.0055518253,-4.9183483
241,0.017249573,-4.7433853
242,0.042768735,-4.554236
243,0.069195904,-4.3509417
244,0.09882443,-4.1311913
245,0.12950099,-3.894999
246,0.16383693,-3.6397557
247,0.19954076,-3.3653479
248,0.23918,-3.0689297
249,0.28088078,-2.7501826
250,0.32643345,-2.4059925
251,0.37516683,-2.036046
252,0.42741805,-1.6366994
253,0.48412082,-1.2057905
254,0.5310632,-0.7505541
255,0.36049062,-0.35245943
256,0.0,0.0
257,0.0,0.0
258,-0.2905849,-0.3030424
259,-0.40789375,-0.7310996
260,-0.35382605,-1.1876342
261,-0.29748297,-1.6187065
262,-0.24524656,-2.017013
263,-0.196106,-2.3880565
264,-0.15131061,-2.7309008
265,-0.1084205,-3.0508032
266,-0.07009962,-3.345942
267,-0.032940626,-3.6214352
268,1.185287e-05,-3.8755941
269,0.032057162,-4.112721
270,0.060478568,-4.331604
271,0.088052355,-4.5356464
272,0.1125862,-4.7241306
273,0.13630134,-4.89969
274,0.1574957,-5.0619535
275,0.17790912,-5.212891
276,0.1962116,-5.352508
277,0.21379474,-5.482302
278,0.22949938,-5.602418
279,0.24453428,-5.7141533
280,0.25842798,-5.8173676
281,0.2712434,-5.913328
282,0.28323492,-6.002674
283,0.29019296,-6.087572
284,0.27540123,-6.1829996
285,0.22329374,-6.299005
286,0.15196715,-6.411533
287,0.07155931,-6.5035725
288,0.01641571,-6.5469747
289,-0.018139755,-6.5469418
290,-0.07360743,-6.503025
291,-0.15377526,-6.4113336
292,-0.22469279,-6.2992764
293,-0.27441022,-6.185456
294,-0.2909046,-6.0884194
295,-0.2836147,-6.0031424
296,-0.27179796,-5.9137554
297,-0.25893822,-5.8179274
298,-0.2449853,-5.7146688
299,-0.23003471,-5.6030035
300,-0.21425098,-5.482919
301,-0.1967277,-5.3531466
302,-0.1783709,-5.213556
303,-0.15798686,-5.0626335
304,-0.13675685,-4.9003797
305,-0.11305135,-4.7248445
306,-0.08849194,-4.5363603
307,-0.06091296,-4.3323283
308,-0.0324673,-4.1134377
309,-0.000406,-3.8763149
310,0.032572925,-3.6221197
311,0.06976065,-3.3466191
312,0.10811881,-3.0513887
313,0.15104736,-2.7314458
314,0.19588521,-2.3885345
315,0.245073,-2.0173788
316,0.29735175,-1.6190159
317,0.35373938,-1.1877644
318,0.40783316,-0.7311146
319,0.29063594,-0.3031907
320,0.0,0.0
321,0.0,0.0
322,-0.19468313,-0.2555728
323,-0.23759814,-0.70337605
324,-0.17984955,-1.1658547
325,-0.123043686,-1.5928218
326,-0.07013079,-1.9941754
327,-0.022091059,-2.362401
328,0.024459645,-2.7079484
329,0.06565592,-3.0252643
330,0.10589194,-3.3226717
331,0.14138998,-3.5961227
332,0.17604032,-3.8519988
333,0.2066929,-4.0876355
334,0.23648417,-4.307721
335,0.2629603,-4.510733
336,0.28856114,-4.7000394
337,0.31141132,-4.874904
338,0.33339193,-5.037756
339,0.35313925,-5.1882877
340,0.37210262,-5.3282332
341,0.38910955,-5.4576907
342,0.40541038,-5.5779266
343,0.42010018,-5.6894293
344,0.4335873,-5.792931
345,0.44558007,-5.8882117
346,0.45189637,-5.974745
347,0.44662392,-6.049886
348,0.43008223,-6.11188
349,0.40035018,-6.1745405
350,0.33611852,-6.259898
351,0.22691514,-6.34991
352,0.080841996,-6.422332
353,-0.0842049,-6.4221606
354,-0.22842652,-6.3498116
355,-0.33717442,-6.2613454
356,-0.39898592,-6.1775026
357,-0.4311961,-6.112338
358,-0.44710547,-6.0503488
359,-0.4527417,-5.975272
360,-0.44602302,-5.88875
361,-0.43406242,-5.793465
362,-0.42062256,-5.6900015
363,-0.4058304,-5.578532
364,-0.38961032,-5.4583106
365,-0.3725449,-5.3288813
366,-0.35362336,-5.1889687
367,-0.3338373,-5.0384383
368,-0.31188223,-4.8756113
369,-0.28900328,-4.7007475
370,-0.2634114,-4.5114613
371,-0.2369136,-4.30844
372,-0.20711829,-4.088362
373,-0.1764437,-3.852695
374,-0.1417808,-3.5968232
375,-0.10625682,-3.3232932
376,-0.06599294,-3.0258436
377,-0.02476033,-2.7084632
378,0.021830507,-2.362828
379,0.06991232,-1.9945817
380,0.122878015,-1.5930636
381,0.17972492,-1.1659734
382,0.23751539,-0.70350385
383,0.19466208,-0.25549126
384,0.0,0.0
385,0.0,0.0
386,-0.04687036,-0.21268368
387,-0.007995602,-0.6752877
388,0.054439995,-1.1300526
389,0.11133293,-1.5639057
390,0.16325061,-1.958672
391,0.21360095,-2.3323505
392,0.25806063,-2.6732385
393,0.30157864,-2.994401
394,0.33991334,-3.2885547
395,0.37736115,-3.5646527
396,0.41047925,-3.8182998
397,0.44267032,-4.0556836
398,0.4712795,-4.2743187
399,0.49894056,-4.4784484
400,0.5236433,-4.666819
401,0.5474107,-4.8423686
402,0.56870985,-5.0046387
403,0.58905196,-5.155722
404,0.6072564,-5.2953687
405,0.624673,-5.425011
406,0.640232,-5.5449815
407,0.6539784,-5.655799
408,0.66303474,-5.7571397
409,0.6624177,-5.847342
410,0.64570594,-5.9228168
411,0.61665374,-5.9877777
412,0.5846542,-6.045759
413,0.54807067,-6.0877547
414,0.490268,-6.1050997
415,0.3755265,-6.1315384
416,0.18578188,-6.1758013
417,-0.19155733,-6.177746
418,-0.37674674,-6.1343546
419,-0.48826241,-6.1070833
420,-0.5501917,-6.0875874
421,-0.58515096,-6.046417
422,-0.6178743,-5.9882627
423,-0.64618737,-5.9234586
424,-0.6630853,-5.8479643
425,-0.66351795,-5.7577486
426,-0.6543789,-5.656416
427,-0.6407185,-5.545598
428,-0.6250674,-5.4256473
429,-0.60772043,-5.2960296
430,-0.58946913,-5.156396
431,-0.56917316,-5.005341
432,-0.5478429,-4.8430686
433,-0.52409667,-4.6675463
434,-0.49937123,-4.4791675
435,-0.47172195,-4.2750497
436,-0.44310072,-4.056393
437,-0.4109093,-3.819011
438,-0.37777433,-3.5653036
439,-0.3403122,-3.2891946
440,-0.30196163,-2.9949841
441,-0.2584129,-2.6737561
442,-0.21391886,-2.332836
443,-0.16352358,-1.9589694
444,-0.11155524,-1.5641558
445,-0.054602433,-1.1302335
446,0.007871057,-0.6752758
447,0.046824723,-0.21275997
448,0.0,0.0
449,0.0,0.0
450,0.1920979,-0.22133589
451,0.3070238,-0.62273383
452,0.3673939,-1.0943134
453,0.4244886,-1.5150523
454,0.47896814,-1.9193106
455,0.5272828,-2.285417
456,0.5742174,-2.6322365
457,0.61575145,-2.9485648
458,0.6562179,-3.2464352
459,0.6920844,-3.5194864
460,0.72688556,-3.775483
461,0.7578454,-4.0109377
462,0.78775805,-4.231039
463,0.81447566,-4.433959
464,0.8401802,-4.6232266
465,0.86323225,-4.7980237
466,0.8852455,-4.960746
467,0.904636,-5.1111436
468,0.9224321,-5.2509174
469,0.93677527,-5.37968
470,0.9458536,-5.497347
471,0.94414055,-5.602556
472,0.92641926,-5.6933856
473,0.8894335,-5.7682867
474,0.8444341,-5.8320837
475,0.79337084,-5.8830614
476,0.717901,-5.916116
477,0.60729647,-5.9271092
478,0.48744604,-5.919316
479,0.3777866,-5.8779182
480,0.16488253,-5.7881527
481,-0.16088519,-5.7881966
482,-0.37958026,-5.8807616
483,-0.49370524,-5.9203434
484,-0.60861635,-5.9284983
485,-0.71976215,-5.9169827
486,-0.7938364,-5.8841395
487,-0.84541154,-5.832916
488,-0.88999695,-5.769066
489,-0.92702943,-5.6940727
490,-0.944678,-5.603174
491,-0.9462482,-5.4980335
492,-0.93721724,-5.3803506
493,-0.9228098,-5.2515864
494,-0.9050589,-5.1118317
495,-0.8856468,-4.9614334
496,-0.86366516,-4.798748
497,-0.84059894,-4.623942
498,-0.8149134,-4.434695
499,-0.7881889,-4.2317557
500,-0.7582874,-4.0116534
501,-0.7273256,-3.7761798
502,-0.6925379,-3.5201583
503,-0.65667444,-3.2470646
504,-0.6162003,-2.9491432
505,-0.5746416,-2.6327186
506,-0.5276761,-2.2857852
507,-0.47932363,-1.9195957
508,-0.42478928,-1.5153008
509,-0.3676341,-1.0944982
510,-0.307176,-0.62274456
511,-0.19216776,-0.22136497
512,0.0,0.0
