Id,X_Disp,Y_Disp
1,0.0,0.0
2,-0.472783,-0.45949078
3,-0.7144237,-0.78251576
4,-0.7197877,-1.2238977
5,-0.6617355,-1.6551147
6,-0.60944736,-2.0547156
7,-0.5609986,-2.4251912
8,-0.51583743,-2.770052
9,-0.4737616,-3.0893908
10,-0.434764,-3.3864517
11,-0.3983957,-3.6616018
12,-0.3647442,-3.917431
13,-0.33333242,-4.154391
14,-0.30431852,-4.374642
15,-0.277181,-4.578663
16,-0.2521885,-4.7682023
17,-0.2287484,-4.9438205
18,-0.20727095,-5.106845
19,-0.18711087,-5.258019
20,-0.1687724,-5.3982325
21,-0.15169804,-5.5287824
22,-0.13652565,-5.6506166
23,-0.124960706,-5.767167
24,-0.11898143,-5.881615
25,-0.12394411,-6.0047655
26,-0.1414203,-6.148778
27,-0.15247892,-6.331905
28,-0.15316062,-6.4863205
29,-0.13975948,-6.5360093
30,-0.046985574,-6.566029
31,0.004108799,-6.6008596
32,0.005635542,-6.642335
33,-0.0011790912,-6.6430125
34,-0.0018339001,-6.6015396
35,0.048338655,-6.5668907
36,0.13561358,-6.5360975
37,0.1562765,-6.488365
38,0.1551139,-6.335045
39,0.14207548,-6.147677
40,0.12444551,-6.0034723
41,0.11946839,-5.880117
42,0.1250367,-5.7654195
43,0.13671869,-5.649001
44,0.15181969,-5.52714
45,0.168908,-5.3966584
46,0.18722601,-5.256474
47,0.20738597,-5.10535
48,0.22884874,-4.942382
49,0.25228378,-4.7668195
50,0.2772667,-4.5773377
51,0.30439323,-4.373373
52,0.3334046,-4.1531806
53,0.3648021,-3.9162872
54,0.3984488,-3.660524
55,0.43479908,-3.3854504
56,0.47380003,-3.088447
57,0.51584667,-2.769175
58,0.5610234,-2.4243565
59,0.60940456,-2.0539508
60,0.6617305,-1.6544771
61,0.71968126,-1.2233374
62,0.71403766,-0.78219676
63,0.47252446,-0.4592347
64,0.0,0.0
65,0.0,0.0
66,-0.2984089,-0.318295
67,-0.4489424,-0.72751236
68,-0.40335768,-1.1796975
69,-0.34716055,-1.6118102
70,-0.29464424,-2.0103555
71,-0.2457522,-2.3817267
72,-0.20020205,-2.7256393
73,-0.15798596,-3.0456643
74,-0.118619405,-3.3420296
75,-0.08219341,-3.6176796
76,-0.048211005,-3.8729694
77,-0.016809186,-4.1103215
78,0.012520772,-4.3301682
79,0.03955112,-4.5344806
80,0.06486843,-4.7237606
81,0.08810935,-4.8995466
82,0.1099531,-5.062464
83,0.12994935,-5.2136245
84,0.14884119,-5.35387
85,0.16629662,-5.483821
86,0.18263139,-5.6044903
87,0.19769531,-5.7158566
88,0.21122302,-5.820245
89,0.22386298,-5.9169602
90,0.23612146,-6.0138025
91,0.22992216,-6.123789
92,0.1844511,-6.2653933
93,0.1416884,-6.4216685
94,0.05712722,-6.5104036
95,0.02214913,-6.539055
96,0.0054996754,-6.5405893
97,-0.0044487636,-6.540177
98,-0.019766146,-6.5376053
99,-0.054398276,-6.5093007
100,-0.13498767,-6.423486
101,-0.18473756,-6.266176
102,-0.23012805,-6.1216
103,-0.23573066,-6.012041
104,-0.22355352,-5.915233
105,-0.21110685,-5.818456
106,-0.19737054,-5.7142315
107,-0.18241884,-5.602832
108,-0.16604125,-5.482233
109,-0.14861979,-5.3523073
110,-0.1297264,-5.2121143
111,-0.10974714,-5.0610075
112,-0.08790963,-4.8981395
113,-0.06468267,-4.7224092
114,-0.039376024,-4.5331817
115,-0.012358021,-4.3289304
116,0.016959187,-4.109135
117,0.048349556,-3.871849
118,0.082315765,-3.6166236
119,0.118731566,-3.3410316
120,0.15807855,-3.0447466
121,0.20028977,-2.724774
122,0.24580598,-2.3809335
123,0.2947029,-2.009597
124,0.34714955,-1.6111598
125,0.40339568,-1.1791124
126,0.44874105,-0.7270844
127,0.29817256,-0.31782007
128,0.0,0.0
129,0.0,0.0
130,-0.1762239,-0.25300646
131,-0.22561215,-0.69026923
132,-0.16930196,-1.1490693
133,-0.112513684,-1.5780337
134,-0.06009144,-1.978359
135,-0.010752872,-2.3485787
136,0.034853626,-2.6933198
137,0.077442855,-3.0125237
138,0.116811834,-3.3095117
139,0.1535508,-3.584538
140,0.18749917,-3.8402941
141,0.21918997,-4.077167
142,0.24841404,-4.297369
143,0.27575818,-4.501345
144,0.3008817,-4.690863
145,0.3244774,-4.866477
146,0.34609836,-5.0295196
147,0.36650544,-5.180675
148,0.3851907,-5.32087
149,0.4027145,-5.45092
150,0.41879123,-5.571183
151,0.4337404,-5.68312
152,0.4480288,-5.7862854
153,0.46138135,-5.8832383
154,0.4685394,-5.969772
155,0.46663374,-6.0444074
156,0.45094797,-6.1106405
157,0.38896522,-6.197836
158,0.26507887,-6.3074017
159,0.14067984,-6.404362
160,0.037811216,-6.45308
161,-0.032935333,-6.4529405
162,-0.13644187,-6.4060354
163,-0.26400697,-6.3092885
164,-0.38916317,-6.1945953
165,-0.45030484,-6.108407
166,-0.46715963,-6.042713
167,-0.46833915,-5.9680448
168,-0.46108526,-5.8814464
169,-0.44756815,-5.784649
170,-0.43348786,-5.6814394
171,-0.41843504,-5.5695724
172,-0.4024204,-5.449339
173,-0.3848784,-5.3193374
174,-0.3662139,-5.179191
175,-0.34581664,-5.0280833
176,-0.32421157,-4.865095
177,-0.30062312,-4.689532
178,-0.27551633,-4.500069
179,-0.24818651,-4.296147
180,-0.2189796,-4.0760083
181,-0.18730365,-3.839192
182,-0.15336862,-3.5835
183,-0.1166503,-3.3085384
184,-0.07729438,-3.0116277
185,-0.034730747,-2.692462
186,0.010871347,-2.3478134
187,0.06016703,-1.9776864
188,0.11260037,-1.5774193
189,0.16931398,-1.1485782
190,0.22561572,-0.6898544
191,0.17605965,-0.25259018
192,0.0,0.0
193,0.0,0.0
194,-0.07114742,-0.22372055
195,-0.054749846,-0.66571975
196,0.0049982164,-1.1251361
197,0.061706163,-1.5542324
198,0.1150234,-1.953598
199,0.16412573,-2.3246448
200,0.21020643,-2.6686249
201,0.25271177,-2.9884405
202,0.29238603,-3.284781
203,0.32907262,-3.5603404
204,0.36329627,-3.8155522
205,0.39487332,-4.052848
206,0.4244061,-4.2726326
207,0.45154646,-4.4769177
208,0.4770286,-4.6661744
209,0.500346,-4.841972
210,0.52230775,-5.0049353
211,0.5423744,-5.156181
212,0.5612576,-5.296384
213,0.57846844,-5.4263144
214,0.59453166,-5.5468144
215,0.60937667,-5.658105
216,0.6223239,-5.76166
217,0.6280626,-5.8538437
218,0.6207136,-5.9343176
219,0.5985368,-6.0012836
220,0.564127,-6.0542765
221,0.5232152,-6.093534
222,0.4638142,-6.142846
223,0.33670616,-6.220253
224,0.1421585,-6.3024716
225,-0.13355054,-6.3028727
226,-0.33554155,-6.2201676
227,-0.46260795,-6.1399646
228,-0.5233035,-6.0920863
229,-0.56386405,-6.052043
230,-0.5976206,-5.999453
231,-0.62101525,-5.932765
232,-0.62781507,-5.8523293
233,-0.62198055,-5.759967
234,-0.6089006,-5.6564627
235,-0.59418404,-5.545218
236,-0.57807225,-5.4247494
237,-0.5609069,-5.2948723
238,-0.54201,-5.1547055
239,-0.5219774,-5.0035205
240,-0.5000185,-4.8406014
241,-0.47671926,-4.6648617
242,-0.45125553,-4.475652
243,-0.4241347,-4.2714286
244,-0.39461568,-4.0516977
245,-0.3630562,-3.8144603
246,-0.32885194,-3.5592976
247,-0.29218262,-3.2838292
248,-0.25253123,-2.9875321
249,-0.21003778,-2.66778
250,-0.16398813,-2.323894
251,-0.11489163,-1.952919
252,-0.06161425,-1.553577
253,-0.0049094893,-1.1245844
254,0.054772064,-0.66530156
255,0.07109143,-0.22349548
256,0.0,0.0
257,0.0,0.0
258,0.017427724,-0.21299219
259,0.07355262,-0.6481471
260,0.13446541,-1.1072364
261,0.19186433,-1.5363369
262,0.24518225,-1.9355791
263,0.29468596,-2.3063529
264,0.34072658,-2.6507626
265,0.38343623,-2.9699862
266,0.4231058,-3.2668948
267,0.46000844,-3.5418272
268,0.49411446,-3.7975674
269,0.52601236,-4.034361
270,0.5553072,-4.254528
271,0.5828435,-4.4584703
272,0.60799956,-4.6479683
273,0.6317173,-4.823587
274,0.6533334,-4.986654
275,0.67368454,-5.137874
276,0.6921892,-5.278099
277,0.7094665,-5.4080267
278,0.7249664,-5.528374
279,0.7390832,-5.639753
280,0.7466456,-5.7403984
281,0.7401161,-5.8284016
282,0.71760595,-5.900966
283,0.6815932,-5.961245
284,0.633883,-6.007881
285,0.5837317,-6.048015
286,0.5265724,-6.0720453
287,0.44067663,-6.0957904
288,0.23241591,-6.1413665
289,-0.22451937,-6.1393323
290,-0.4389953,-6.0931344
291,-0.5270643,-6.0705185
292,-0.5829412,-6.04556
293,-0.63308364,-6.0064554
294,-0.68112385,-5.9591827
295,-0.71658957,-5.899194
296,-0.7403711,-5.8269186
297,-0.74640864,-5.7388434
298,-0.73867446,-5.638129
299,-0.7244922,-5.5267696
300,-0.70906943,-5.4065022
301,-0.6917633,-5.2765875
302,-0.673301,-5.13643
303,-0.6529428,-4.985243
304,-0.6313582,-4.822236
305,-0.60764575,-4.646657
306,-0.58251524,-4.457221
307,-0.5549903,-4.253324
308,-0.5257204,-4.033223
309,-0.49384412,-3.7964842
310,-0.459758,-3.5408049
311,-0.42287582,-3.2659216
312,-0.38322312,-2.9690871
313,-0.34053543,-2.649923
314,-0.29451457,-2.3056312
315,-0.24502808,-1.9348876
316,-0.19173415,-1.5356848
317,-0.13435951,-1.1067278
318,-0.07347576,-0.6477983
319,-0.01749427,-0.21270132
320,0.0,0.0
321,0.0,0.0
322,0.08658758,-0.21237803
323,0.16916865,-0.63560677
324,0.23091234,-1.0935891
325,0.288968,-1.5234723
326,0.3420571,-1.9215934
327,0.39207584,-2.29345
328,0.43794432,-2.6367517
329,0.48080707,-2.9568968
330,0.5206397,-3.2529445
331,0.5573721,-3.528574
332,0.5918772,-3.7837288
333,0.6234055,-4.0209494
334,0.65321606,-4.24076
335,0.68031013,-4.44494
336,0.70599616,-4.6342454
337,0.72926503,-4.8099847
338,0.7513143,-4.972962
339,0.77124673,-5.1241956
340,0.789911,-5.2644444
341,0.8066187,-5.394315
342,0.82224226,-5.5146184
343,0.8336611,-5.625103
344,0.83302915,-5.722604
345,0.8140543,-5.804673
346,0.7803812,-5.8742394
347,0.73355305,-5.927722
348,0.6807804,-5.972317
349,0.62052554,-6.005445
350,0.5486034,-6.0282516
351,0.45146325,-6.0245304
352,0.26005962,-6.011559
353,-0.25565538,-6.0097575
354,-0.44761887,-6.020221
355,-0.5481503,-6.025532
356,-0.62058616,-6.004399
357,-0.68014264,-5.970195
358,-0.7324517,-5.9261894
359,-0.77983433,-5.87216
360,-0.8133629,-5.8029776
361,-0.833218,-5.72119
362,-0.83331215,-5.6235056
363,-0.8217626,-5.5130634
364,-0.8061337,-5.39275
365,-0.78948736,-5.262966
366,-0.7707951,-5.122738
367,-0.75090903,-4.9715743
368,-0.72886664,-4.808626
369,-0.7056231,-4.6329546
370,-0.6799495,-4.443687
371,-0.6528801,-4.2395763
372,-0.62308306,-4.019809
373,-0.5915848,-3.7826552
374,-0.5570968,-3.5275528
375,-0.5203869,-3.2520077
376,-0.4805785,-2.9559994
377,-0.43772882,-2.6359262
378,-0.39188674,-2.2926028
379,-0.34188563,-1.9208734
380,-0.2888139,-1.5228698
381,-0.23079363,-1.0930457
382,-0.1690511,-0.6351049
383,-0.08660308,-0.21202469
384,0.0,0.0
385,0.0,0.0
386,0.14030594,-0.21788836
387,0.24020343,-0.62404656
388,0.3031297,-1.0852835
389,0.36100128,-1.5123591
390,0.4144614,-1.9124727
391,0.46463642,-2.2827241
392,0.5102101,-2.6271482
393,0.5536947,-2.9465284
394,0.5928829,-3.2430532
395,0.63043815,-3.5183382
396,0.6641718,-3.7736735
397,0.69652826,-4.010791
398,0.72563654,-4.2306194
399,0.75345886,-4.4347925
400,0.77854824,-4.6240616
401,0.80237377,-4.7998104
402,0.8239257,-4.9627557
403,0.8442593,-5.11398
404,0.86237544,-5.25416
405,0.8792678,-5.384097
406,0.8943015,-5.504281
407,0.90195924,-5.613189
408,0.8913986,-5.7070355
409,0.8649381,-5.786065
410,0.82160485,-5.8507166
411,0.7673607,-5.903156
412,0.7097854,-5.943623
413,0.6443877,-5.973666
414,0.55660725,-5.985505
415,0.43445528,-5.9709516
416,0.24508896,-5.913416
417,-0.24347697,-5.912657
418,-0.43226737,-5.966343
419,-0.5535172,-5.98221
420,-0.6441692,-5.971938
421,-0.70956635,-5.9425797
422,-0.7667232,-5.9008045
423,-0.8207326,-5.8490524
424,-0.86404383,-5.7842083
425,-0.8912923,-5.7054915
426,-0.90189314,-5.6118
427,-0.8937656,-5.502686
428,-0.8787944,-5.382574
429,-0.8618818,-5.2526693
430,-0.8438122,-5.112564
431,-0.82347333,-4.9613504
432,-0.80196345,-4.7984805
433,-0.77813834,-4.62276
434,-0.75308746,-4.433558
435,-0.725284,-4.2294235
436,-0.6961973,-4.0096674
437,-0.66386163,-3.7725923
438,-0.6301456,-3.5173373
439,-0.59260803,-3.2420988
440,-0.5534437,-2.9456248
441,-0.5099839,-2.626309
442,-0.46442628,-2.2819617
443,-0.4142849,-1.9117291
444,-0.36083072,-1.5117483
445,-0.30298528,-1.0847428
446,-0.24009411,-0.62359023
447,-0.14024977,-0.21752024
448,0.0,0.0
449,0.0,0.0
450,0.18020716,-0.22526836
451,0.29358917,-0.61476564
452,0.3569054,-1.0796406
453,0.41428417,-1.5036454
454,0.46914175,-1.9059772
455,0.51780486,-2.2744548
456,0.56505334,-2.620255
457,0.60699517,-2.9385488
458,0.64769965,-3.2359183
459,0.6839431,-3.5105236
460,0.7189138,-3.7663612
461,0.7502415,-4.003074
462,0.7802976,-4.2231965
463,0.8073499,-4.427116
464,0.83311546,-4.616555
465,0.8563846,-4.792153
466,0.8784318,-4.9551926
467,0.8983017,-5.106323
468,0.9166839,-5.246481
469,0.93317264,-5.376446
470,0.9481247,-5.4965153
471,0.94939244,-5.6032705
472,0.9329232,-5.694481
473,0.89930624,-5.771169
474,0.8495812,-5.832245
475,0.7910887,-5.8832917
476,0.7286682,-5.9229198
477,0.65615195,-5.9478145
478,0.55440843,-5.9499235
479,0.41989034,-5.925352
480,0.2121259,-5.835668
481,-0.21326034,-5.83497
482,-0.41774878,-5.922078
483,-0.5508682,-5.945935
484,-0.6542406,-5.945785
485,-0.72936475,-5.9215007
486,-0.79053175,-5.8815565
487,-0.8483589,-5.830366
488,-0.89880455,-5.7693577
489,-0.93216634,-5.692787
490,-0.9495863,-5.601943
491,-0.9476758,-5.494988
492,-0.9326219,-5.3748827
493,-0.91620475,-5.2450266
494,-0.89780515,-5.104872
495,-0.87798864,-4.9538236
496,-0.85593665,-4.7908
497,-0.83270574,-4.6152787
498,-0.80695707,-4.4258676
499,-0.7799344,-4.2220197
500,-0.7498878,-4.001936
501,-0.718589,-3.7652974
502,-0.6836409,-3.5095148
503,-0.6474166,-3.23495
504,-0.60673267,-2.9376416
505,-0.56481564,-2.6194344
506,-0.5175884,-2.2736824
507,-0.4689476,-1.9052937
508,-0.41411194,-1.5030854
509,-0.35672784,-1.0791273
510,-0.2934928,-0.61431193
511,-0.18008484,-0.22495699
512,0.0,0.0
